time[us]	ref_X[V]	ref_Y[V]	sig_I[V]
1078408115	2.3765	1.0736	2.3700
1078408315	2.4898	1.1282	2.4853
1078408515	2.5949	1.1962	2.5860
1078408715	2.6910	1.2772	2.6803
1078408915	2.7762	1.3696	2.7657
1078409115	2.8492	1.4719	2.8431
1078409315	2.9085	1.5822	2.8818
1078409515	2.9538	1.6995	2.9462
1078409715	2.9839	1.8215	2.9744
1078409915	2.9986	1.9463	2.9930
1078410115	2.9974	2.0720	2.9938
1078410315	2.9805	2.1966	2.9599
1078410515	2.9481	2.3180	2.9325
1078410715	2.9007	2.4345	2.8955
1078410915	2.8393	2.5436	2.8358
1078411115	2.7645	2.6446	2.7528
1078411315	2.6776	2.7354	2.6730
1078411515	2.5804	2.8143	2.5739
1078411715	2.4736	2.8807	2.4659
1078411915	2.3594	2.9332	2.3483
1078412115	2.2395	2.9709	2.2355
1078412315	2.1163	2.9932	2.1122
1078412515	1.9908	3.0000	1.9816
1078412715	1.8654	2.9909	1.8559
1078412915	1.7422	2.9662	1.7318
1078413115	1.6235	2.9264	1.6198
1078413315	1.5102	2.8718	1.5086
1078413515	1.4047	2.8035	1.3982
1078413715	1.3086	2.7225	1.3023
1078413915	1.2238	2.6304	1.2233
1078414115	1.1508	2.5281	1.1484
1078414315	1.0913	2.4174	1.0919
1078414515	1.0461	2.3001	1.0388
1078414715	1.0161	2.1785	1.0114
1078414915	1.0014	2.0537	0.9960
1078415115	1.0026	1.9280	1.0017
1078415315	1.0195	1.8034	1.0138
1078415515	1.0518	1.6824	1.0460
1078415715	1.0991	1.5660	1.0952
1078415915	1.1607	1.4564	1.1548
1078416115	1.2355	1.3554	1.2273
1078416315	1.3220	1.2649	1.3111
1078416515	1.4196	1.1857	1.4143
1078416715	1.5264	1.1193	1.5207
1078416915	1.6401	1.0670	1.6311
1078417115	1.7600	1.0292	1.7503
1078417315	1.8837	1.0068	1.8768
1078417515	2.0092	1.0000	2.0034
1078417715	2.1341	1.0090	2.1218
1078417915	2.2573	1.0337	2.2443
1078418115	2.3765	1.0736	2.3733
1078418315	2.4898	1.1282	2.4732
1078418515	2.5949	1.1962	2.5812
1078418715	2.6910	1.2772	2.6811
1078418915	2.7762	1.3696	2.7665
1078419115	2.8492	1.4719	2.8439
1078419315	2.9085	1.5822	2.9003
1078419515	2.9538	1.6995	2.9398
1078419715	2.9839	1.8215	2.9768
1078419915	2.9986	1.9463	2.9938
1078420115	2.9974	2.0720	2.9865
1078420315	2.9805	2.1966	2.9801
1078420515	2.9481	2.3180	2.9422
1078420715	2.9007	2.4345	2.8906
1078420915	2.8393	2.5436	2.8366
1078421115	2.7645	2.6446	2.7577
1078421315	2.6776	2.7354	2.6763
1078421515	2.5804	2.8143	2.5731
1078421715	2.4736	2.8807	2.4571
1078421915	2.3594	2.9332	2.3451
1078422115	2.2395	2.9709	2.2274
1078422315	2.1163	2.9932	2.1009
1078422515	1.9908	3.0000	1.9808
1078422715	1.8654	2.9909	1.8607
1078422915	1.7422	2.9662	1.7302
1078423115	1.6235	2.9264	1.6149
1078423315	1.5102	2.8718	1.5021
1078423515	1.4047	2.8035	1.3974
1078423715	1.3086	2.7225	1.3039
1078423915	1.2238	2.6304	1.2209
1078424115	1.1508	2.5281	1.1459
1078424315	1.0913	2.4174	1.0839
1078424515	1.0461	2.3001	1.0363
1078424715	1.0161	2.1785	1.0122
1078424915	1.0014	2.0537	0.9968
1078425115	1.0026	1.9280	0.9977
1078425315	1.0195	1.8034	1.0130
1078425515	1.0518	1.6824	1.0484
1078425715	1.0991	1.5660	1.0968
1078425915	1.1607	1.4564	1.1556
1078426115	1.2355	1.3554	1.2322
1078426315	1.3220	1.2649	1.3160
1078426515	1.4196	1.1857	1.4151
1078426715	1.5264	1.1193	1.5223
1078426915	1.6401	1.0670	1.6351
1078427115	1.7600	1.0292	1.7608
1078427315	1.8837	1.0068	1.8768
1078427515	2.0092	1.0000	2.0050
1078427715	2.1341	1.0090	2.1339
1078427915	2.2573	1.0337	2.2572
1078428115	2.3765	1.0736	2.3716
1078428315	2.4898	1.1282	2.4821
1078428515	2.5949	1.1962	2.5828
1078428715	2.6910	1.2772	2.6771
1078428915	2.7762	1.3696	2.7730
1078429115	2.8492	1.4719	2.8423
1078429315	2.9085	1.5822	2.8987
1078429515	2.9538	1.6995	2.9511
1078429715	2.9839	1.8215	2.9736
1078429915	2.9986	1.9463	3.0002
1078430115	2.9974	2.0720	2.9817
1078430315	2.9805	2.1966	2.9640
1078430515	2.9481	2.3180	2.9446
1078430715	2.9007	2.4345	2.8890
1078430915	2.8393	2.5436	2.8382
1078431115	2.7645	2.6446	2.7568
1078431315	2.6776	2.7354	2.6545
1078431515	2.5804	2.8143	2.5731
1078431715	2.4736	2.8807	2.4716
1078431915	2.3594	2.9332	2.3499
1078432115	2.2395	2.9709	2.2290
1078432315	2.1163	2.9932	2.1025
1078432515	1.9908	3.0000	1.9824
1078432715	1.8654	2.9909	1.8567
1078432915	1.7422	2.9662	1.7020
1078433115	1.6235	2.9264	1.6149
1078433315	1.5102	2.8718	1.5029
1078433515	1.4047	2.8035	1.3974
1078433715	1.3086	2.7225	1.3055
1078433915	1.2238	2.6304	1.2185
1078434115	1.1508	2.5281	1.1459
1078434315	1.0913	2.4174	1.0774
1078434515	1.0461	2.3001	1.0436
1078434715	1.0161	2.1785	1.0105
1078434915	1.0014	2.0537	0.9920
1078435115	1.0026	1.9280	0.9952
1078435315	1.0195	1.8034	1.0122
1078435515	1.0518	1.6824	1.0500
1078435715	1.0991	1.5660	1.0976
1078435915	1.1607	1.4564	1.1548
1078436115	1.2355	1.3554	1.2249
1078436315	1.3220	1.2649	1.3144
1078436515	1.4196	1.1857	1.4127
1078436715	1.5264	1.1193	1.5182
1078436915	1.6401	1.0670	1.6303
1078437115	1.7600	1.0292	1.7487
1078437315	1.8837	1.0068	1.8785
1078437515	2.0092	1.0000	1.9864
1078437715	2.1341	1.0090	2.1307
1078437915	2.2573	1.0337	2.2459
1078438115	2.3765	1.0736	2.3644
1078438315	2.4898	1.1282	2.4748
1078438515	2.5949	1.1962	2.5892
1078438715	2.6910	1.2772	2.6875
1078438915	2.7762	1.3696	2.7681
1078439115	2.8492	1.4719	2.8374
1078439315	2.9085	1.5822	2.8995
1078439515	2.9538	1.6995	2.9462
1078439715	2.9839	1.8215	2.9785
1078439915	2.9986	1.9463	2.9833
1078440115	2.9974	2.0720	2.9897
1078440315	2.9805	2.1966	2.9728
1078440515	2.9481	2.3180	2.9366
1078440715	2.9007	2.4345	2.8922
1078440915	2.8393	2.5436	2.8334
1078441115	2.7645	2.6446	2.7609
1078441315	2.6776	2.7354	2.6747
1078441515	2.5804	2.8143	2.5755
1078441715	2.4736	2.8807	2.4708
1078441915	2.3594	2.9332	2.3491
1078442115	2.2395	2.9709	2.2298
1078442315	2.1163	2.9932	2.1154
1078442515	1.9908	3.0000	1.9840
1078442715	1.8654	2.9909	1.8543
1078442915	1.7422	2.9662	1.7326
1078443115	1.6235	2.9264	1.6141
1078443315	1.5102	2.8718	1.4957
1078443515	1.4047	2.8035	1.4006
1078443715	1.3086	2.7225	1.3007
1078443915	1.2238	2.6304	1.2168
1078444115	1.1508	2.5281	1.1459
1078444315	1.0913	2.4174	1.0847
1078444515	1.0461	2.3001	1.0404
1078444715	1.0161	2.1785	1.0114
1078444915	1.0014	2.0537	0.9920
1078445115	1.0026	1.9280	0.9968
1078445315	1.0195	1.8034	1.0122
1078445515	1.0518	1.6824	1.0500
1078445715	1.0991	1.5660	1.0976
1078445915	1.1607	1.4564	1.1556
1078446115	1.2355	1.3554	1.2305
1078446315	1.3220	1.2649	1.3136
1078446515	1.4196	1.1857	1.4135
1078446715	1.5264	1.1193	1.5215
1078446915	1.6401	1.0670	1.6303
1078447115	1.7600	1.0292	1.7576
1078447315	1.8837	1.0068	1.8777
1078447515	2.0092	1.0000	2.0010
1078447715	2.1341	1.0090	2.1291
1078447915	2.2573	1.0337	2.2524
1078448115	2.3765	1.0736	2.3708
1078448315	2.4898	1.1282	2.4804
1078448515	2.5949	1.1962	2.5900
1078448715	2.6910	1.2772	2.6795
1078448915	2.7762	1.3696	2.7746
1078449115	2.8492	1.4719	2.8407
1078449315	2.9085	1.5822	2.9003
1078449515	2.9538	1.6995	2.9462
1078449715	2.9839	1.8215	2.9712
1078449915	2.9986	1.9463	2.9833
1078450115	2.9974	2.0720	2.9889
1078450315	2.9805	2.1966	2.9768
1078450515	2.9481	2.3180	2.9374
1078450715	2.9007	2.4345	2.8890
1078450915	2.8393	2.5436	2.8286
1078451115	2.7645	2.6446	2.7560
1078451315	2.6776	2.7354	2.6730
1078451515	2.5804	2.8143	2.5812
1078451715	2.4736	2.8807	2.4627
1078451915	2.3594	2.9332	2.3467
1078452115	2.2395	2.9709	2.2306
1078452315	2.1163	2.9932	2.1041
1078452515	1.9908	3.0000	1.9760
1078452715	1.8654	2.9909	1.8599
1078452915	1.7422	2.9662	1.7382
1078453115	1.6235	2.9264	1.6149
1078453315	1.5102	2.8718	1.5021
1078453515	1.4047	2.8035	1.3998
1078453715	1.3086	2.7225	1.3079
1078453915	1.2238	2.6304	1.2168
1078454115	1.1508	2.5281	1.1467
1078454315	1.0913	2.4174	1.0799
1078454515	1.0461	2.3001	1.0379
1078454715	1.0161	2.1785	1.0122
1078454915	1.0014	2.0537	0.9968
1078455115	1.0026	1.9280	0.9977
1078455315	1.0195	1.8034	1.0130
1078455515	1.0518	1.6824	1.0476
1078455715	1.0991	1.5660	1.0952
1078455915	1.1607	1.4564	1.1604
1078456115	1.2355	1.3554	1.2241
1078456315	1.3220	1.2649	1.3127
1078456515	1.4196	1.1857	1.4111
1078456715	1.5264	1.1193	1.5182
1078456915	1.6401	1.0670	1.6359
1078457115	1.7600	1.0292	1.7552
1078457315	1.8837	1.0068	1.8817
1078457515	2.0092	1.0000	2.0010
1078457715	2.1341	1.0090	2.1339
1078457915	2.2573	1.0337	2.2524
1078458115	2.3765	1.0736	2.3612
1078458315	2.4898	1.1282	2.4901
1078458515	2.5949	1.1962	2.5844
1078458715	2.6910	1.2772	2.6811
1078458915	2.7762	1.3696	2.7738
1078459115	2.8492	1.4719	2.8382
1078459315	2.9085	1.5822	2.8938
1078459515	2.9538	1.6995	2.9543
1078459715	2.9839	1.8215	2.9817
1078459915	2.9986	1.9463	2.9938
1078460115	2.9974	2.0720	2.9881
1078460315	2.9805	2.1966	2.9768
1078460515	2.9481	2.3180	2.9406
1078460715	2.9007	2.4345	2.8930
1078460915	2.8393	2.5436	2.8334
1078461115	2.7645	2.6446	2.7544
1078461315	2.6776	2.7354	2.6682
1078461515	2.5804	2.8143	2.5723
1078461715	2.4736	2.8807	2.4619
1078461915	2.3594	2.9332	2.3563
1078462115	2.2395	2.9709	2.2322
1078462315	2.1163	2.9932	2.1130
1078462515	1.9908	3.0000	1.9864
1078462715	1.8654	2.9909	1.8583
1078462915	1.7422	2.9662	1.7374
1078463115	1.6235	2.9264	1.6206
1078463315	1.5102	2.8718	1.5078
1078463515	1.4047	2.8035	1.3966
1078463715	1.3086	2.7225	1.3071
1078463915	1.2238	2.6304	1.2168
1078464115	1.1508	2.5281	1.1443
1078464315	1.0913	2.4174	1.0839
1078464515	1.0461	2.3001	1.0339
1078464715	1.0161	2.1785	1.0138
1078464915	1.0014	2.0537	0.9952
1078465115	1.0026	1.9280	0.9993
1078465315	1.0195	1.8034	1.0122
1078465515	1.0518	1.6824	1.0516
1078465715	1.0991	1.5660	1.0968
1078465915	1.1607	1.4564	1.1556
1078466115	1.2355	1.3554	1.2233
1078466315	1.3220	1.2649	1.3184
1078466515	1.4196	1.1857	1.4159
1078466715	1.5264	1.1193	1.5174
1078466915	1.6401	1.0670	1.6343
1078467115	1.7600	1.0292	1.7503
1078467315	1.8837	1.0068	1.8672
1078467515	2.0092	1.0000	2.0026
1078467715	2.1341	1.0090	2.1299
1078467915	2.2573	1.0337	2.2564
1078468115	2.3765	1.0736	2.3757
1078468315	2.4898	1.1282	2.4788
1078468515	2.5949	1.1962	2.5828
1078468715	2.6910	1.2772	2.6787
1078468915	2.7762	1.3696	2.7714
1078469115	2.8492	1.4719	2.8439
1078469315	2.9085	1.5822	2.8930
1078469515	2.9538	1.6995	2.9470
1078469715	2.9839	1.8215	2.9873
1078469915	2.9986	1.9463	2.9978
1078470115	2.9974	2.0720	2.9841
1078470315	2.9805	2.1966	2.9688
1078470515	2.9481	2.3180	2.9382
1078470715	2.9007	2.4345	2.8922
1078470915	2.8393	2.5436	2.8245
1078471115	2.7645	2.6446	2.7568
1078471315	2.6776	2.7354	2.6730
1078471515	2.5804	2.8143	2.5715
1078471715	2.4736	2.8807	2.4716
1078471915	2.3594	2.9332	2.3499
1078472115	2.2395	2.9709	2.2371
1078472315	2.1163	2.9932	2.1154
1078472515	1.9908	3.0000	1.9881
1078472715	1.8654	2.9909	1.8535
1078472915	1.7422	2.9662	1.7302
1078473115	1.6235	2.9264	1.6190
1078473315	1.5102	2.8718	1.5005
1078473515	1.4047	2.8035	1.4006
1078473715	1.3086	2.7225	1.3055
1078473915	1.2238	2.6304	1.2152
1078474115	1.1508	2.5281	1.1475
1078474315	1.0913	2.4174	1.0879
1078474515	1.0461	2.3001	1.0371
1078474715	1.0161	2.1785	1.0097
1078474915	1.0014	2.0537	0.9928
1078475115	1.0026	1.9280	1.0001
1078475315	1.0195	1.8034	0.9832
1078475515	1.0518	1.6824	1.0476
1078475715	1.0991	1.5660	1.0968
1078475915	1.1607	1.4564	1.1564
1078476115	1.2355	1.3554	1.2257
1078476315	1.3220	1.2649	1.3200
1078476515	1.4196	1.1857	1.4143
1078476715	1.5264	1.1193	1.5150
1078476915	1.6401	1.0670	1.6295
1078477115	1.7600	1.0292	1.7527
1078477315	1.8837	1.0068	1.8744
1078477515	2.0092	1.0000	1.9993
1078477715	2.1341	1.0090	2.1251
1078477915	2.2573	1.0337	2.2524
1078478115	2.3765	1.0736	2.3684
1078478315	2.4898	1.1282	2.4885
1078478515	2.5949	1.1962	2.5852
1078478715	2.6910	1.2772	2.6795
1078478915	2.7762	1.3696	2.7738
1078479115	2.8492	1.4719	2.8415
1078479315	2.9085	1.5822	2.9067
1078479515	2.9538	1.6995	2.9462
1078479715	2.9839	1.8215	2.9696
1078479915	2.9986	1.9463	2.9922
1078480115	2.9974	2.0720	2.9833
1078480315	2.9805	2.1966	2.9640
1078480515	2.9481	2.3180	2.9333
1078480715	2.9007	2.4345	2.8874
1078480915	2.8393	2.5436	2.8286
1078481115	2.7645	2.6446	2.7560
1078481315	2.6776	2.7354	2.6690
1078481515	2.5804	2.8143	2.5691
1078481715	2.4736	2.8807	2.4627
1078481915	2.3594	2.9332	2.3547
1078482115	2.2395	2.9709	2.2322
1078482315	2.1163	2.9932	2.1089
1078482515	1.9908	3.0000	1.9792
1078482715	1.8654	2.9909	1.8543
1078482915	1.7422	2.9662	1.7310
1078483115	1.6235	2.9264	1.6149
1078483315	1.5102	2.8718	1.5078
1078483515	1.4047	2.8035	1.3925
1078483715	1.3086	2.7225	1.3039
1078483915	1.2238	2.6304	1.2168
1078484115	1.1508	2.5281	1.1459
1078484315	1.0913	2.4174	1.0839
1078484515	1.0461	2.3001	1.0379
1078484715	1.0161	2.1785	1.0122
1078484915	1.0014	2.0537	0.9952
1078485115	1.0026	1.9280	0.9977
1078485315	1.0195	1.8034	1.0122
1078485515	1.0518	1.6824	1.0444
1078485715	1.0991	1.5660	1.0944
1078485915	1.1607	1.4564	1.1548
1078486115	1.2355	1.3554	1.2297
1078486315	1.3220	1.2649	1.3184
1078486515	1.4196	1.1857	1.3998
1078486715	1.5264	1.1193	1.5158
1078486915	1.6401	1.0670	1.6286
1078487115	1.7600	1.0292	1.7576
1078487315	1.8837	1.0068	1.8712
1078487515	2.0092	1.0000	2.0082
1078487715	2.1341	1.0090	2.1234
1078487915	2.2573	1.0337	2.2484
1078488115	2.3765	1.0736	2.3741
1078488315	2.4898	1.1282	2.4821
1078488515	2.5949	1.1962	2.5933
1078488715	2.6910	1.2772	2.6859
1078488915	2.7762	1.3696	2.7754
1078489115	2.8492	1.4719	2.8447
1078489315	2.9085	1.5822	2.9035
1078489515	2.9538	1.6995	2.9454
1078489715	2.9839	1.8215	2.9777
1078489915	2.9986	1.9463	2.9881
1078490115	2.9974	2.0720	2.9623
1078490315	2.9805	2.1966	2.9696
1078490515	2.9481	2.3180	2.9438
1078490715	2.9007	2.4345	2.8947
1078490915	2.8393	2.5436	2.8366
1078491115	2.7645	2.6446	2.7617
1078491315	2.6776	2.7354	2.6626
1078491515	2.5804	2.8143	2.5667
1078491715	2.4736	2.8807	2.4635
1078491915	2.3594	2.9332	2.3555
1078492115	2.2395	2.9709	2.2314
1078492315	2.1163	2.9932	2.1089
1078492515	1.9908	3.0000	1.9776
1078492715	1.8654	2.9909	1.8623
1078492915	1.7422	2.9662	1.7390
1078493115	1.6235	2.9264	1.6133
1078493315	1.5102	2.8718	1.5062
1078493515	1.4047	2.8035	1.4014
1078493715	1.3086	2.7225	1.3063
1078493915	1.2238	2.6304	1.2136
1078494115	1.1508	2.5281	1.1443
1078494315	1.0913	2.4174	1.0839
1078494515	1.0461	2.3001	1.0363
1078494715	1.0161	2.1785	1.0105
1078494915	1.0014	2.0537	0.9968
1078495115	1.0026	1.9280	0.9960
1078495315	1.0195	1.8034	1.0138
1078495515	1.0518	1.6824	1.0468
1078495715	1.0991	1.5660	1.0952
1078495915	1.1607	1.4564	1.1532
1078496115	1.2355	1.3554	1.2273
1078496315	1.3220	1.2649	1.3224
1078496515	1.4196	1.1857	1.4143
1078496715	1.5264	1.1193	1.5239
1078496915	1.6401	1.0670	1.6311
1078497115	1.7600	1.0292	1.7584
1078497315	1.8837	1.0068	1.8760
1078497515	2.0092	1.0000	2.0090
1078497715	2.1341	1.0090	2.1275
1078497915	2.2573	1.0337	2.2475
1078498115	2.3765	1.0736	2.3596
1078498315	2.4898	1.1282	2.4877
1078498515	2.5949	1.1962	2.5836
1078498715	2.6910	1.2772	2.6787
1078498915	2.7762	1.3696	2.7754
1078499115	2.8492	1.4719	2.8390
1078499315	2.9085	1.5822	2.8987
1078499515	2.9538	1.6995	2.9519
1078499715	2.9839	1.8215	2.9752
1078499915	2.9986	1.9463	2.9986
1078500115	2.9974	2.0720	2.9873
1078500315	2.9805	2.1966	2.9833
1078500515	2.9481	2.3180	2.9438
1078500715	2.9007	2.4345	2.8963
1078500915	2.8393	2.5436	2.8149
1078501115	2.7645	2.6446	2.7528
1078501315	2.6776	2.7354	2.6682
1078501515	2.5804	2.8143	2.5683
1078501715	2.4736	2.8807	2.4651
1078501915	2.3594	2.9332	2.3297
1078502115	2.2395	2.9709	2.2298
1078502315	2.1163	2.9932	2.1073
1078502515	1.9908	3.0000	1.9832
1078502715	1.8654	2.9909	1.8559
1078502915	1.7422	2.9662	1.7141
1078503115	1.6235	2.9264	1.6198
1078503315	1.5102	2.8718	1.5070
1078503515	1.4047	2.8035	1.3933
1078503715	1.3086	2.7225	1.3071
1078503915	1.2238	2.6304	1.2177
1078504115	1.1508	2.5281	1.1500
1078504315	1.0913	2.4174	1.0831
1078504515	1.0461	2.3001	1.0420
1078504715	1.0161	2.1785	1.0130
1078504915	1.0014	2.0537	0.9960
1078505115	1.0026	1.9280	0.9977
1078505315	1.0195	1.8034	1.0001
1078505515	1.0518	1.6824	1.0452
1078505715	1.0991	1.5660	1.0952
1078505915	1.1607	1.4564	1.1572
1078506115	1.2355	1.3554	1.2314
1078506315	1.3220	1.2649	1.3144
1078506515	1.4196	1.1857	1.4159
1078506715	1.5264	1.1193	1.5255
1078506915	1.6401	1.0670	1.6278
1078507115	1.7600	1.0292	1.7350
1078507315	1.8837	1.0068	1.8768
1078507515	2.0092	1.0000	2.0042
1078507715	2.1341	1.0090	2.1242
1078507915	2.2573	1.0337	2.2564
1078508115	2.3765	1.0736	2.3757
1078508315	2.4898	1.1282	2.4788
1078508515	2.5949	1.1962	2.5949
1078508715	2.6910	1.2772	2.6787
1078508915	2.7762	1.3696	2.7689
1078509115	2.8492	1.4719	2.8415
1078509315	2.9085	1.5822	2.8947
1078509515	2.9538	1.6995	2.9495
1078509715	2.9839	1.8215	2.9680
1078509915	2.9986	1.9463	2.9720
1078510115	2.9974	2.0720	2.9914
1078510315	2.9805	2.1966	2.9768
1078510515	2.9481	2.3180	2.9390
1078510715	2.9007	2.4345	2.8922
1078510915	2.8393	2.5436	2.8334
1078511115	2.7645	2.6446	2.7641
1078511315	2.6776	2.7354	2.6722
1078511515	2.5804	2.8143	2.5804
1078511715	2.4736	2.8807	2.4611
1078511915	2.3594	2.9332	2.3459
1078512115	2.2395	2.9709	2.2314
1078512315	2.1163	2.9932	2.1162
1078512515	1.9908	3.0000	1.9808
1078512715	1.8654	2.9909	1.8398
1078512915	1.7422	2.9662	1.7262
1078513115	1.6235	2.9264	1.6174
1078513315	1.5102	2.8718	1.5062
1078513515	1.4047	2.8035	1.3675
1078513715	1.3086	2.7225	1.3007
1078513915	1.2238	2.6304	1.2177
1078514115	1.1508	2.5281	1.1435
1078514315	1.0913	2.4174	1.0815
1078514515	1.0461	2.3001	1.0388
1078514715	1.0161	2.1785	1.0122
1078514915	1.0014	2.0537	0.9944
1078515115	1.0026	1.9280	0.9960
1078515315	1.0195	1.8034	1.0162
1078515515	1.0518	1.6824	1.0468
1078515715	1.0991	1.5660	1.0968
1078515915	1.1607	1.4564	1.1548
1078516115	1.2355	1.3554	1.2297
1078516315	1.3220	1.2649	1.3144
1078516515	1.4196	1.1857	1.4119
1078516715	1.5264	1.1193	1.5207
1078516915	1.6401	1.0670	1.6335
1078517115	1.7600	1.0292	1.7527
1078517315	1.8837	1.0068	1.8752
1078517515	2.0092	1.0000	2.0010
1078517715	2.1341	1.0090	2.1275
1078517915	2.2573	1.0337	2.2508
1078518115	2.3765	1.0736	2.3700
1078518315	2.4898	1.1282	2.4869
1078518515	2.5949	1.1962	2.5804
1078518715	2.6910	1.2772	2.6892
1078518915	2.7762	1.3696	2.7665
1078519115	2.8492	1.4719	2.8407
1078519315	2.9085	1.5822	2.8987
1078519515	2.9538	1.6995	2.9486
1078519715	2.9839	1.8215	2.9817
1078519915	2.9986	1.9463	2.9946
1078520115	2.9974	2.0720	2.9922
1078520315	2.9805	2.1966	2.9736
1078520515	2.9481	2.3180	2.9406
1078520715	2.9007	2.4345	2.8914
1078520915	2.8393	2.5436	2.8358
1078521115	2.7645	2.6446	2.7552
1078521315	2.6776	2.7354	2.6626
1078521515	2.5804	2.8143	2.5707
1078521715	2.4736	2.8807	2.4643
1078521915	2.3594	2.9332	2.3451
1078522115	2.2395	2.9709	2.2290
1078522315	2.1163	2.9932	2.1089
1078522515	1.9908	3.0000	1.9856
1078522715	1.8654	2.9909	1.8567
1078522915	1.7422	2.9662	1.7366
1078523115	1.6235	2.9264	1.6198
1078523315	1.5102	2.8718	1.5021
1078523515	1.4047	2.8035	1.3941
1078523715	1.3086	2.7225	1.3015
1078523915	1.2238	2.6304	1.2160
1078524115	1.1508	2.5281	1.1459
1078524315	1.0913	2.4174	1.0855
1078524515	1.0461	2.3001	1.0396
1078524715	1.0161	2.1785	1.0130
1078524915	1.0014	2.0537	0.9944
1078525115	1.0026	1.9280	1.0009
1078525315	1.0195	1.8034	1.0114
1078525515	1.0518	1.6824	1.0452
1078525715	1.0991	1.5660	1.0944
1078525915	1.1607	1.4564	1.1564
1078526115	1.2355	1.3554	1.2322
1078526315	1.3220	1.2649	1.3152
1078526515	1.4196	1.1857	1.4167
1078526715	1.5264	1.1193	1.5207
1078526915	1.6401	1.0670	1.6391
1078527115	1.7600	1.0292	1.7536
1078527315	1.8837	1.0068	1.8768
1078527515	2.0092	1.0000	1.9985
1078527715	2.1341	1.0090	2.1339
1078527915	2.2573	1.0337	2.2161
1078528115	2.3765	1.0736	2.3741
1078528315	2.4898	1.1282	2.4869
1078528515	2.5949	1.1962	2.5860
1078528715	2.6910	1.2772	2.6819
1078528915	2.7762	1.3696	2.7657
1078529115	2.8492	1.4719	2.8439
1078529315	2.9085	1.5822	2.8922
1078529515	2.9538	1.6995	2.9478
1078529715	2.9839	1.8215	2.9728
1078529915	2.9986	1.9463	2.9905
1078530115	2.9974	2.0720	2.9873
1078530315	2.9805	2.1966	2.9728
1078530515	2.9481	2.3180	2.9374
1078530715	2.9007	2.4345	2.8955
1078530915	2.8393	2.5436	2.8318
1078531115	2.7645	2.6446	2.7560
1078531315	2.6776	2.7354	2.6730
1078531515	2.5804	2.8143	2.5667
1078531715	2.4736	2.8807	2.4675
1078531915	2.3594	2.9332	2.3571
1078532115	2.2395	2.9709	2.2330
1078532315	2.1163	2.9932	2.1105
1078532515	1.9908	3.0000	1.9864
